  time (s)              T(t) (K)              P(t) (Pa)           Kinetic En. (n.u.)     Potential En. (n.u.) Total En. (n.u.)
  0.0000e+00           99.82304616            0.00000000        2276.12983954        -2504.39449734         -228.26465780 
  5.0000e-15           99.43006643            0.00000000        2267.16925470        -2504.73754469         -237.56829000 
  1.0000e-14           98.77588380            0.00000000        2252.25281323        -2505.38519740         -253.13238417 
  1.5000e-14           97.86274191            0.00000000        2231.43167453        -2506.32928718         -274.89761265 
  2.0000e-14           96.69420692            0.00000000        2204.78715238        -2507.55824664         -302.77109426 
  2.5000e-14           95.27544708            0.00000000        2172.43709170        -2509.05709241         -336.62000071 
  3.0000e-14           93.61359318            0.00000000        2134.54408609        -2510.80741919         -376.26333310 
  3.5000e-14           91.71817531            0.00000000        2091.32543719        -2512.78741534         -421.46197816 
  4.0000e-14           89.60162563            0.00000000        2043.06461894        -2514.97191327         -471.90729434 
  4.5000e-14           87.27982724            0.00000000        1990.12379217        -2517.33248982         -527.20869766 
  5.0000e-14           84.77267539            0.00000000        1932.95660142        -2519.83763351         -586.88103209 
  5.5000e-14           82.10459940            0.00000000        1872.12007501        -2522.45299530         -650.33292030 
  6.0000e-14           79.30497260            0.00000000        1808.28397361        -2525.14173751         -716.85776390 
  6.5000e-14           76.40831815            0.00000000        1742.23548195        -2527.86499046         -785.62950850 
  7.0000e-14           73.45420664            0.00000000        1674.87687468        -2530.58241926         -855.70554457 
  7.5000e-14           70.48674794            0.00000000        1607.21392950        -2533.25289347         -926.03896396 
  8.0000e-14           67.55361228            0.00000000        1540.33360634        -2535.83524299         -995.50163665 
  8.5000e-14           64.70457698            0.00000000        1475.37090963        -2538.28907565        -1062.91816602 
  9.0000e-14           61.98967523            0.00000000        1413.46667893        -2540.57562664        -1127.10894771 
  9.5000e-14           59.45710104            0.00000000        1355.71981680        -2542.65860721        -1186.93879040 
  1.0000e-13           57.15107350            0.00000000        1303.13859138        -2544.50501843        -1241.36642705 
  1.0500e-13           55.10987046            0.00000000        1256.59580053        -2546.08589443        -1289.49009391 
  1.1000e-13           53.36420805            0.00000000        1216.79182305        -2547.37693957        -1330.58511652 
  1.1500e-13           51.93608655            0.00000000        1184.22830089        -2548.35902718        -1364.13072629 
  1.2000e-13           50.83816250            0.00000000        1159.19382452        -2549.01853493        -1389.82471041 
  1.2500e-13           50.07365433            0.00000000        1141.76177931        -2549.34750199        -1407.58572268 
  1.3000e-13           49.63674418            0.00000000        1131.79950848        -2549.34360511        -1417.54409664 
  1.3500e-13           49.51340384            0.00000000        1128.98714557        -2549.00996137        -1420.02281580 
  1.4000e-13           49.68254684            0.00000000        1132.84388447        -2548.35477422        -1415.51088975 
  1.4500e-13           50.11739509            0.00000000        1142.75914071        -2547.39084631        -1404.63170559 
  1.5000e-13           50.78694778            0.00000000        1158.02604452        -2546.13498700        -1388.10894248 
  1.5500e-13           51.65745157            0.00000000        1177.87496458        -2544.60734534        -1366.73238076 
  1.6000e-13           52.69379097            0.00000000        1201.50520949        -2542.83069942        -1341.32548993 
  1.6500e-13           53.86074066            0.00000000        1228.11358424        -2540.82973209        -1312.71614785 
  1.7000e-13           55.12404482            0.00000000        1256.91899934        -2538.63031966        -1281.71132033 
  1.7500e-13           56.45130757            0.00000000        1287.18277572        -2536.25885662        -1249.07608090 
  1.8000e-13           57.81269408            0.00000000        1318.22463025        -2533.74163442        -1215.51700418 
  1.8500e-13           59.18145184            0.00000000        1349.43456110        -2531.10428831        -1181.66972721 
  1.9000e-13           60.53426772            0.00000000        1380.28099101        -2528.37132108        -1148.09033008 
  1.9500e-13           61.85147952            0.00000000        1410.31558916        -2525.56570956        -1115.25012040 
  2.0000e-13           63.11716037            0.00000000        1439.17519682        -2522.70859547        -1083.53339865 
  2.0500e-13           64.31909323            0.00000000        1466.58124537        -2519.81906017        -1053.23781480 
  2.1000e-13           65.44864973            0.00000000        1492.33699374        -2516.91398003        -1024.57698629 
  2.1500e-13           66.50058459            0.00000000        1516.32284083        -2514.00795724         -997.68511642 
  2.2000e-13           67.47275411            0.00000000        1538.48990685        -2511.11331917         -972.62341232 
  2.2500e-13           68.36576579            0.00000000        1558.85204371        -2508.24017772         -949.38813401 
  2.3000e-13           69.18256663            0.00000000        1577.47644798        -2505.39653895         -927.92009098 
  2.3500e-13           69.92798097            0.00000000        1594.47312241        -2502.58845229         -908.11532989 
  2.4000e-13           70.60821430            0.00000000        1609.98356256        -2499.82018800         -889.83662544 
  2.4500e-13           71.23034709            0.00000000        1624.16921476        -2497.09443208         -872.92521732 
  2.5000e-13           71.80184970            0.00000000        1637.20041531        -2494.41248851         -857.21207320 
  2.5500e-13           72.33015357            0.00000000        1649.24661358        -2491.77448017         -842.52786659 
  2.6000e-13           72.82231203            0.00000000        1660.46863708        -2489.17954175         -828.71090468 
  2.6500e-13           73.28477426            0.00000000        1671.01353751        -2486.62599977         -815.61246226 
  2.7000e-13           73.72327989            0.00000000        1681.01218789        -2484.11153609         -803.09934819 
  2.7500e-13           74.14286289            0.00000000        1690.57937129        -2481.63333319         -791.05396190 
  2.8000e-13           74.54793734            0.00000000        1699.81573590        -2479.18820016         -779.37246426 
  2.8500e-13           74.94242885            0.00000000        1708.81079189        -2476.77268017         -767.96188828 
  2.9000e-13           75.32991569            0.00000000        1717.64612997        -2474.38314128         -756.73701131 
  2.9500e-13           75.71375125            0.00000000        1726.39821291        -2472.01585361         -745.61764070 
  3.0000e-13           76.09715048            0.00000000        1735.14034665        -2469.66705632         -734.52670967 
  3.0500e-13           76.48323420            0.00000000        1743.94369135        -2467.33301780         -723.38932645 
  3.1000e-13           76.87503393            0.00000000        1752.87737024        -2465.01009137         -712.13272113 
  3.1500e-13           77.27546492            0.00000000        1762.00785636        -2462.69476805         -700.68691169 
  3.2000e-13           77.68727807            0.00000000        1771.39787419        -2460.38372667         -688.98585247 
  3.2500e-13           78.11300133            0.00000000        1781.10506558        -2458.07388077         -676.96881519 
  3.3000e-13           78.55488125            0.00000000        1791.18065554        -2455.76242136         -664.58176582 
  3.3500e-13           79.01483354            0.00000000        1801.66832530        -2453.44685435         -651.77852905 
  3.4000e-13           79.49441007            0.00000000        1812.60345986        -2451.12503194         -638.52157207 
  3.4500e-13           79.99478732            0.00000000        1824.01288521        -2448.79517747         -624.78229226 
  3.5000e-13           80.51677849            0.00000000        1835.91514341        -2446.45590400         -610.54076059 
  3.5500e-13           81.06086767            0.00000000        1848.32127264        -2444.10622740         -595.78495476 
  3.6000e-13           81.62726072            0.00000000        1861.23596709        -2441.74557520         -580.50960811 
  3.6500e-13           82.21594329            0.00000000        1874.65889908        -2439.37379268         -564.71489361 
  3.7000e-13           82.82673286            0.00000000        1888.58590710        -2436.99114753         -548.40524043 
  3.7500e-13           83.45931027            0.00000000        1903.00971385        -2434.59833366         -531.58861981 
  3.8000e-13           84.11321706            0.00000000        1917.91986540        -2432.19647414         -514.27660873 
  3.8500e-13           84.78781035            0.00000000        1933.30170323        -2429.78712197         -496.48541874 
  3.9000e-13           85.48217664            0.00000000        1949.13439817        -2427.37225689         -478.23785872 
  3.9500e-13           86.19501797            0.00000000        1965.38835444        -2424.95427613         -459.56592169 
  4.0000e-13           86.92453509            0.00000000        1982.02254614        -2422.53597746         -440.51343132 
  4.0500e-13           87.66833770            0.00000000        1998.98247048        -2420.12053365         -421.13806318 
  4.1000e-13           88.42340776            0.00000000        2016.19931123        -2417.71145792         -401.51214669 
  4.1500e-13           89.18612896            0.00000000        2033.59061080        -2415.31256026         -381.72194945 
  4.2000e-13           89.95237821            0.00000000        2051.06235556        -2412.92789483         -361.86553927 
  4.2500e-13           90.71766009            0.00000000        2068.51204267        -2410.56169849         -342.04965582 
  4.3000e-13           91.47725861            0.00000000        2085.83213973        -2408.21832141         -322.38618169 
  4.3500e-13           92.22638261            0.00000000        2102.91340049        -2405.90215135         -302.98875086 
  4.4000e-13           92.96029019            0.00000000        2119.64770206        -2403.61753399         -283.96983193 
  4.4500e-13           93.67438850            0.00000000        2135.93031935        -2401.36869200         -265.43837265 
  4.5000e-13           94.36431427            0.00000000        2151.66176310        -2399.15964542         -247.49788232 
  4.5500e-13           95.02600622            0.00000000        2166.74942933        -2396.99413584         -230.24470651 
  4.6000e-13           95.65578087            0.00000000        2181.10932840        -2394.87555655         -213.76622815 
  4.6500e-13           96.25042055     80467840.79271357        2194.66809242        -2392.80689080         -198.13879838 
  4.7000e-13           96.80826945            0.00000000        2207.38796602        -2390.81534224         -183.42737622 
  4.7500e-13           97.32621046            0.00000000        2219.19787390        -2388.87861526         -169.68074136 
  4.8000e-13           97.80305792            0.00000000        2230.07078115        -2386.99821147         -156.92743032 
  4.8500e-13           98.23850517            0.00000000        2239.99969554        -2385.17510141         -145.17540587 
  4.9000e-13           98.63316825            0.00000000        2248.99866378        -2383.40973583         -134.41107205 
  4.9500e-13           98.98856603     94972998.72779381        2257.10231853        -2381.70207458         -124.59975605 
  5.0000e-13           99.30766187            0.00000000        2264.37822905        -2380.08322146         -115.70499241 
  5.0500e-13           99.59277114            0.00000000        2270.87918988        -2378.52074071         -107.64155083 
  5.1000e-13           99.84726944            0.00000000        2276.68217023        -2377.01341834         -100.33124811 
  5.1500e-13          100.07468522            0.00000000        2281.86762457        -2375.55979010          -93.69216553 
  5.2000e-13          100.27844744            0.00000000        2286.51373863        -2374.15821526          -87.64447663 
  5.2500e-13          100.46167271            0.00000000        2290.69157652        -2372.80694764          -82.11537112 
  5.3000e-13          100.62701459            0.00000000        2294.46164378        -2371.50420019          -77.04255640 
  5.3500e-13          100.77658119            0.00000000        2297.87200859        -2370.24819932          -72.37619074 
  5.4000e-13          100.91191187            0.00000000        2300.95777090        -2369.03722587          -68.07945497 
  5.4500e-13          101.03399489            0.00000000        2303.74146487        -2367.86964011          -64.12817524 
  5.5000e-13          101.14330778            0.00000000        2306.23397878        -2366.74389003          -60.50991125 
  5.5500e-13          101.23986948            0.00000000        2308.43574448        -2365.65850332          -57.22275884 
  5.6000e-13          101.32330360            0.00000000        2310.33817975        -2364.61206538          -54.27388563 
  5.6500e-13          101.39291989            0.00000000        2311.92554595        -2363.60318660          -51.67764065 
  5.7000e-13          101.44782303     53725445.42242643        2313.17742791        -2362.63046306          -49.45303514 
  5.7500e-13          101.48814275            0.00000000        2314.09678401        -2361.70668357          -47.60989956 
  5.8000e-13          101.51191970            0.00000000        2314.63893746        -2360.81611992          -46.17718245 
  5.8500e-13          101.51857558            0.00000000        2314.79070253        -2359.95708206          -45.16637953 
  5.9000e-13          101.50797665            0.00000000        2314.54902960        -2359.12772377          -44.57869417 
  5.9500e-13          101.48056058     77381903.00105315        2313.92389799        -2358.32602807          -44.40213007 
  6.0000e-13          101.43933409            0.00000000        2312.98386605        -2357.57688248          -44.59301643 
  6.0500e-13          101.38373260            0.00000000        2311.71606065        -2356.85127103          -45.13521038 
  6.1000e-13          101.31597197            0.00000000        2310.17100659        -2356.14672761          -45.97572103 
  6.1500e-13          101.23869804            0.00000000        2308.40903375        -2355.46069098          -47.05165723 
  6.2000e-13          101.15482752            0.00000000        2306.49664772        -2354.79055432          -48.29390660 
  6.2500e-13          101.06738109     68892508.72990593        2304.50272520        -2354.13372296          -49.63099776 
  6.3000e-13          100.98235937    169562217.57480535        2302.56409000        -2353.50670019          -50.94261019 
  6.3500e-13          100.90171504     91051991.64620316        2300.72526642        -2352.94367170          -52.21840528 
  6.4000e-13          100.83013437    137291796.43553919        2299.09310925        -2352.41180690          -53.31869764 
  6.4500e-13          100.76933384     76790530.79178074        2297.70675696        -2351.93459909          -54.22784213 
  6.5000e-13          100.71870633            0.00000000        2296.55236643        -2351.48923565          -54.93686921 
  6.5500e-13          100.67788021    174120187.50646010        2295.62146378        -2351.04558337          -55.42411960 
  6.6000e-13          100.65335634     55952001.33696831        2295.06227904        -2350.65979491          -55.59751587 
  6.6500e-13          100.64095823            0.00000000        2294.77958165        -2350.29237968          -55.51279803 
  6.7000e-13          100.63944682            0.00000000        2294.74511908        -2349.92581354          -55.18069446 
  6.7500e-13          100.64844831    184333714.88951546        2294.95036799        -2349.56026269          -54.60989470 
  6.8000e-13          100.67252935     54293960.88431127        2295.49945517        -2349.24735801          -53.74790283 
  6.8500e-13          100.70772319            0.00000000        2296.30193266        -2348.95337645          -52.65144379 
  6.9000e-13          100.75021744    138303134.85529304        2297.27087154        -2348.66346600          -51.39259446 
  6.9500e-13          100.80102808            0.00000000        2298.42943787        -2348.43136644          -50.00192857 
  7.0000e-13          100.85562072            0.00000000        2299.67424003        -2348.20748586          -48.53324583 
  7.0500e-13          100.91232226            0.00000000        2300.96712839        -2347.99367368          -47.02654529 
  7.1000e-13          100.96940922     93534525.90596624        2302.26880509        -2347.79191117          -45.52310608 
  7.1500e-13          101.02759652     44072793.52679916        2303.59557150        -2347.63334703          -44.03777553 
  7.2000e-13          101.08391338    136421853.71470812        2304.87968870        -2347.50168841          -42.62199971 
  7.2500e-13          101.13807978            0.00000000        2306.11477175        -2347.41043936          -41.29566761 
  7.3000e-13          101.18517317            0.00000000        2307.18857854        -2347.34031198          -40.15173344 
  7.3500e-13          101.22338099    146989078.74298924        2308.05977976        -2347.29324632          -39.23346656 
  7.4000e-13          101.25333019            0.00000000        2308.74267088        -2347.32746386          -38.58479298 
  7.4500e-13          101.27058257            0.00000000        2309.13605347        -2347.38871501          -38.25266154 
  7.5000e-13          101.27339646     52543282.45657424        2309.20021476        -2347.47830257          -38.27808781 
  7.5500e-13          101.26078631     50478875.56357422        2308.91268274        -2347.60542242          -38.69273968 
  7.6000e-13          101.23304464    114192522.87103914        2308.28012701        -2347.77582709          -39.49570008 
  7.6500e-13          101.18987232    184462270.03999460        2307.29572687        -2348.01156412          -40.71583725 
  7.7000e-13          101.13258705     57767040.79904333        2305.98952838        -2348.33263183          -42.34310345 
  7.7500e-13          101.05589851    172816247.22602338        2304.24090342        -2348.70780973          -44.46690631 
  7.8000e-13          100.95946799    199581971.05128336        2302.04212876        -2349.16555803          -47.12342928 
  7.8500e-13          100.84482290            0.00000000        2299.42803193        -2349.70323258          -50.27520065 
  7.9000e-13          100.70813257            0.00000000        2296.31126733        -2350.26626460          -53.95499727 
  7.9500e-13          100.55048554     82852587.33577281        2292.71665534        -2350.85168337          -58.13502803 
  8.0000e-13          100.37641283     64663370.56569906        2288.74751090        -2351.47410358          -62.72659268 
